IonEnergy(MeV) dE/dxElec(MeV/(mg/cm2)) dE/dxNuc(MeV/(mg/cm2)) ProjectedRange(um) LongitudinalStraggling(um) LateralStraggling(um)
12.00E-03 4.474E-01 5.277E-03 1597E-04 388E-04 413E-04 
13.00E-03 4.628E-01 4.992E-03 1697E-04 396E-04 426E-04 
14.00E-03 4.774E-01 4.739E-03 1794E-04 404E-04 438E-04 
15.00E-03 4.910E-01 4.514E-03 1889E-04 411E-04 450E-04 
16.00E-03 5.039E-01 4.311E-03 1982E-04 417E-04 461E-04 
17.00E-03 5.160E-01 4.128E-03 2074E-04 423E-04 471E-04 
18.00E-03 5.275E-01 3.962E-03 2163E-04 429E-04 481E-04 
20.00E-03 5.487E-01 3.670E-03 2338E-04 439E-04 499E-04 
22.50E-03 5.721E-01 3.366E-03 2549E-04 451E-04 520E-04 
25.00E-03 5.928E-01 3.114E-03 2753E-04 461E-04 539E-04 
27.50E-03 6.110E-01 2.900E-03 2952E-04 470E-04 556E-04 
30.00E-03 6.273E-01 2.716E-03 3146E-04 479E-04 572E-04 
32.50E-03 6.419E-01 2.557E-03 3336E-04 486E-04 587E-04 
35.00E-03 6.549E-01 2.416E-03 3522E-04 493E-04 600E-04 
37.50E-03 6.667E-01 2.292E-03 3705E-04 500E-04 614E-04 
40.00E-03 6.773E-01 2.181E-03 3886E-04 506E-04 626E-04 
45.00E-03 6.955E-01 1.991E-03 4240E-04 518E-04 649E-04 
50.00E-03 7.103E-01 1.835E-03 4587E-04 530E-04 671E-04 
55.00E-03 7.220E-01 1.703E-03 4929E-04 540E-04 690E-04 
60.00E-03 7.310E-01 1.590E-03 5266E-04 549E-04 709E-04 
65.00E-03 7.376E-01 1.492E-03 5601E-04 558E-04 727E-04 
70.00E-03 7.420E-01 1.407E-03 5933E-04 567E-04 743E-04 
80.00E-03 7.450E-01 1.265E-03 6596E-04 586E-04 775E-04 
90.00E-03 7.418E-01 1.151E-03 7259E-04 605E-04 805E-04 
100.00E-03 7.340E-01 1.057E-03 7929E-04 622E-04 834E-04 
110.00E-03 7.229E-01 9.781E-04 8608E-04 639E-04 862E-04 
120.00E-03 7.097E-01 9.111E-04 9299E-04 656E-04 889E-04 
130.00E-03 6.950E-01 8.534E-04 1.00 673E-04 916E-04 
140.00E-03 6.797E-01 8.031E-04 1.07 689E-04 943E-04 
150.00E-03 6.640E-01 7.588E-04 1.15 706E-04 970E-04 
160.00E-03 6.484E-01 7.195E-04 1.22 723E-04 997E-04 
170.00E-03 6.330E-01 6.844E-04 1.30 740E-04 1025E-04 
180.00E-03 6.181E-01 6.527E-04 1.38 758E-04 1052E-04 
200.00E-03 5.896E-01 5.980E-04 1.54 810E-04 1109E-04 
225.00E-03 5.570E-01 5.421E-04 1.76 888E-04 1182E-04 
250.00E-03 5.279E-01 4.964E-04 1.99 967E-04 1258E-04 
275.00E-03 5.018E-01 4.582E-04 2.23 1047E-04 1338E-04 
300.00E-03 4.784E-01 4.258E-04 2.49 1129E-04 1421E-04 
325.00E-03 4.575E-01 3.980E-04 2.75 1213E-04 1508E-04 
350.00E-03 4.385E-01 3.738E-04 3.03 1299E-04 1598E-04 
375.00E-03 4.214E-01 3.526E-04 3.32 1385E-04 1693E-04 
400.00E-03 4.057E-01 3.338E-04 3.62 1474E-04 1790E-04 
450.00E-03 3.783E-01 3.020E-04 4.26 1772E-04 1996E-04 
500.00E-03 3.551E-01 2.760E-04 4.94 2062E-04 2216E-04 
550.00E-03 3.351E-01 2.544E-04 5.66 2348E-04 2448E-04 
600.00E-03 3.176E-01 2.361E-04 6.42 2632E-04 2694E-04 
650.00E-03 3.022E-01 2.204E-04 7.23 2917E-04 2951E-04 
700.00E-03 2.886E-01 2.068E-04 8.07 3203E-04 3220E-04 
800.00E-03 2.654E-01 1.842E-04 9.87 4184E-04 3792E-04 
900.00E-03 2.463E-01 1.664E-04 11.82 5104E-04 4406E-04 
1.00 2.303E-01 1.519E-04 13.92 5997E-04 5060E-04 
1.10 2.174E-01 1.398E-04 16.14 6875E-04 5751E-04 
1.20 2.047E-01 1.296E-04 18.51 7749E-04 6478E-04 
1.30 1.934E-01 1.208E-04 21.01 8631E-04 7242E-04 
1.40 1.835E-01 1.133E-04 23.66 9524E-04 8045E-04 
1.50 1.747E-01 1.066E-04 26.45 1.04 8884E-04 
1.60 1.668E-01 1.008E-04 29.37 1.13 9759E-04 
1.70 1.597E-01 9.556E-05 32.42 1.23 1.07 
1.80 1.533E-01 9.088E-05 35.61 1.32 1.16 
2.00 1.420E-01 8.284E-05 42.37 1.66 1.36 
2.25 1.303E-01 7.468E-05 51.55 2.14 1.63 
2.50 1.205E-01 6.805E-05 61.50 2.59 1.92 
2.75 1.122E-01 6.256E-05 72.23 3.04 2.23 
3.00 1.052E-01 5.792E-05 83.71 3.48 2.56 
3.25 9.899E-02 5.396E-05 95.94 3.93 2.91 
3.50 9.357E-02 5.052E-05 108.90 4.38 3.27 
3.75 8.877E-02 4.752E-05 122.59 4.83 3.66 
4.00 8.449E-02 4.487E-05 137.00 5.29 4.07 
4.50 7.715E-02 4.041E-05 167.91 6.95 4.93 
5.00 7.109E-02 3.679E-05 201.61 8.52 5.87 
5.50 6.599E-02 3.379E-05 238.04 10.05 6.87 
6.00 6.163E-02 3.126E-05 277.18 11.58 7.95 
6.50 5.786E-02 2.910E-05 318.97 13.11 9.09 
7.00 5.456E-02 2.723E-05 363.39 14.66 10.30 
8.00 4.907E-02 2.416E-05 459.87 20.25 12.91 
9.00 4.466E-02 2.173E-05 566.52 25.48 15.78 
10.00 4.104E-02 1.977E-05 683.13 30.60 18.90 
11.00 3.801E-02 1.814E-05 809.53 35.71 22.26 
12.00 3.543E-02 1.678E-05 945.56 40.86 25.87 
13.00 3.321E-02 1.561E-05 1.09E03 46.08 29.70 
14.00 3.128E-02 1.460E-05 1.25E03 51.37 33.78 
15.00 2.958E-02 1.372E-05 1.41E03 56.75 38.07 
16.00 2.807E-02 1.294E-05 1.58E03 62.22 42.60 
17.00 2.672E-02 1.225E-05 1.77E03 67.78 47.34 
18.00 2.551E-02 1.163E-05 1.96E03 73.44 52.31 
20.00 2.341E-02 1.057E-05 2.37E03 94.31 62.89 
22.50 2.128E-02 9.501E-06 2.92E03 124.16 77.30 
25.00 1.953E-02 8.635E-06 3.54E03 152.51 93.00 
27.50 1.808E-02 7.918E-06 4.20E03 180.36 109.95 
30.00 1.685E-02 7.316E-06 4.92E03 208.12 128.12 
32.50 1.579E-02 6.802E-06 5.68E03 236.03 147.48 
35.00 1.487E-02 6.358E-06 6.50E03 264.20 168.01 
37.50 1.407E-02 5.971E-06 7.36E03 292.70 189.69 
40.00 1.336E-02 5.629E-06 8.27E03 321.58 212.49 
45.00 1.215E-02 5.056E-06 10.23E03 427.86 261.38 
50.00 1.117E-02 4.592E-06 12.37E03 527.80 314.51 
55.00 1.036E-02 4.209E-06 14.69E03 625.27 371.74 
60.00 9.675E-03 3.887E-06 17.19E03 721.95 432.93 
65.00 9.087E-03 3.612E-06 19.85E03 818.65 497.95 
70.00 8.578E-03 3.375E-06 22.68E03 915.84 566.68 
80.00 7.739E-03 2.986E-06 28.81E03 1.27E03 714.86 
90.00 7.076E-03 2.680E-06 35.56E03 1.60E03 876.63 
100.00 6.538E-03 2.433E-06 42.90E03 1.92E03 1.05E03 
110.00 6.093E-03 2.229E-06 50.82E03 2.23E03 1.24E03 
120.00 5.718E-03 2.058E-06 59.28E03 2.54E03 1.44E03 
130.00 5.398E-03 1.912E-06 68.27E03 2.85E03 1.65E03 
140.00 5.121E-03 1.785E-06 77.77E03 3.17E03 1.86E03 
150.00 4.880E-03 1.676E-06 87.76E03 3.48E03 2.09E03 
160.00 4.668E-03 1.579E-06 98.22E03 3.80E03 2.33E03 
170.00 4.479E-03 1.493E-06 109.14E03 4.12E03 2.58E03 
180.00 4.311E-03 1.416E-06 120.51E03 4.44E03 2.84E03 
200.00 4.023E-03 1.285E-06 144.50E03 5.62E03 3.37E03 
225.00 3.732E-03 1.153E-06 176.73E03 7.27E03 4.08E03 
250.00 3.499E-03 1.046E-06 211.29E03 8.80E03 4.84E03 
275.00 3.307E-03 9.575E-07 248.01E03 10.26E03 5.63E03 
300.00 3.146E-03 8.835E-07 286.73E03 11.67E03 6.45E03 
325.00 3.010E-03 8.204E-07 327.31E03 13.05E03 7.29E03 
350.00 2.893E-03 7.660E-07 369.63E03 14.40E03 8.17E03 
375.00 2.792E-03 7.185E-07 413.56E03 15.73E03 9.07E03 
400.00 2.704E-03 6.768E-07 459.01E03 17.04E03 9.98E03 
450.00 2.558E-03 6.068E-07 554.01E03 21.79E03 11.87E03 
500.00 2.441E-03 5.503E-07 653.99E03 26.06E03 13.81E03 
550.00 2.347E-03 5.037E-07 758.36E03 30.04E03 15.79E03 
600.00 2.269E-03 4.646E-07 866.62E03 33.81E03 17.80E03 
650.00 2.204E-03 4.313E-07 978.33E03 37.41E03 19.84E03 
700.00 2.149E-03 4.025E-07 1.09E06 40.87E03 21.89E03 
800.00 2.063E-03 3.555E-07 1.33E06 53.05E03 26.02E03 
900.00 1.998E-03 3.186E-07 1.58E06 63.61E03 30.16E03 
1.00E03 1.948E-03 2.888E-07 1.83E06 73.15E03 34.27E03 
1.10E03 1.909E-03 2.643E-07 2.09E06 81.97E03 38.35E03 
1.20E03 1.878E-03 2.437E-07 2.35E06 90.21E03 42.38E03 
1.30E03 1.854E-03 2.262E-07 2.62E06 97.98E03 46.35E03 
1.40E03 1.834E-03 2.111E-07 2.89E06 105.36E03 50.26E03 
1.50E03 1.818E-03 1.979E-07 3.17E06 112.39E03 54.10E03 
1.60E03 1.805E-03 1.863E-07 3.44E06 119.11E03 57.88E03 
1.70E03 1.795E-03 1.761E-07 3.72E06 125.55E03 61.60E03 
1.80E03 1.786E-03 1.669E-07 4.00E06 131.75E03 65.24E03 
2.00E03 1.774E-03 1.513E-07 4.56E06 154.08E03 72.34E03 
2.25E03 1.764E-03 1.355E-07 5.27E06 183.89E03 80.86E03 
2.50E03 1.759E-03 1.228E-07 5.98E06 209.72E03 89.01E03 
2.75E03 1.757E-03 1.123E-07 6.69E06 232.78E03 96.82E03 
3.00E03 1.758E-03 1.035E-07 7.40E06 253.79E03 104.31E03 
3.25E03 1.759E-03 9.603E-08 8.11E06 273.16E03 111.50E03 
3.50E03 1.762E-03 8.959E-08 8.82E06 291.22E03 118.44E03 
3.75E03 1.766E-03 8.398E-08 9.53E06 308.16E03 125.12E03 
4.00E03 1.770E-03 7.905E-08 10.23E06 324.15E03 131.57E03 
4.50E03 1.779E-03 7.079E-08 11.64E06 380.77E03 143.86E03 
5.00E03 1.789E-03 6.412E-08 13.04E06 429.52E03 155.41E03 
5.50E03 1.799E-03 5.864E-08 14.44E06 472.82E03 166.33E03 
6.00E03 1.808E-03 5.404E-08 15.82E06 512.07E03 176.69E03 
6.50E03 1.818E-03 5.012E-08 17.20E06 548.14E03 186.54E03 
7.00E03 1.828E-03 4.675E-08 18.57E06 581.63E03 195.96E03 
8.00E03 1.846E-03 4.124E-08 21.29E06 697.77E03 213.64E03 
9.00E03 1.863E-03 3.691E-08 23.99E06 795.41E03 230.01E03 
10.00E03 1.879E-03 3.343E-08 26.66E06 880.85E03 245.29E03 
